range (m) overlap_factor (smoothed by 4 range bins)
-86.250000 -0.000000
-78.750000 -0.000000
-71.250000 -0.000000
-63.750000 -0.000000
-56.250000 -0.000000
-48.750000 -0.000000
-41.250000 -0.000000
-33.750000 -0.000000
-26.250000 -0.000000
-18.750000 0.000010
-11.250000 0.000011
-3.750000 0.000011
3.750000 0.000004
11.250000 0.000012
18.750000 0.000026
26.250000 0.000058
33.750000 0.000111
41.250000 0.000195
48.750000 0.000297
56.250000 0.000414
63.750000 0.000545
71.250000 0.000698
78.750000 0.000872
86.250000 0.001073
93.750000 0.001303
101.250000 0.001576
108.750000 0.001907
116.250000 0.002327
123.750000 0.002817
131.250000 0.003363
138.750000 0.003945
146.250000 0.004586
153.750000 0.005331
161.250000 0.006195
168.750000 0.007302
176.250000 0.008759
183.750000 0.010682
191.250000 0.013160
198.750000 0.016202
206.250000 0.019820
213.750000 0.023970
221.250000 0.028659
228.750000 0.033994
236.250000 0.039987
243.750000 0.046731
251.250000 0.054052
258.750000 0.062067
266.250000 0.070599
273.750000 0.079607
281.250000 0.088919
288.750000 0.098443
296.250000 0.108283
303.750000 0.118300
311.250000 0.128355
318.750000 0.138231
326.250000 0.148091
333.750000 0.158053
341.250000 0.168034
348.750000 0.178162
356.250000 0.188266
363.750000 0.198514
371.250000 0.208740
378.750000 0.219090
386.250000 0.229526
393.750000 0.239803
401.250000 0.250254
408.750000 0.260807
416.250000 0.271689
423.750000 0.282404
431.250000 0.293017
438.750000 0.303633
446.250000 0.314365
453.750000 0.325059
461.250000 0.335766
468.750000 0.346629
476.250000 0.357500
483.750000 0.368605
491.250000 0.379379
498.750000 0.390393
506.250000 0.401528
513.750000 0.412773
521.250000 0.424693
528.750000 0.436136
536.250000 0.447664
543.750000 0.458529
551.250000 0.470110
558.750000 0.481613
566.250000 0.493185
573.750000 0.503981
581.250000 0.514668
588.750000 0.525862
596.250000 0.536643
603.750000 0.547354
611.250000 0.557765
618.750000 0.568546
626.250000 0.579773
633.750000 0.589785
641.250000 0.599529
648.750000 0.609649
656.250000 0.619568
663.750000 0.629294
671.250000 0.638153
678.750000 0.647698
686.250000 0.657454
693.750000 0.667074
701.250000 0.676450
708.750000 0.685955
716.250000 0.695037
723.750000 0.704143
731.250000 0.712878
738.750000 0.721373
746.250000 0.729653
753.750000 0.737087
761.250000 0.745014
768.750000 0.752346
776.250000 0.760159
783.750000 0.767509
791.250000 0.775758
798.750000 0.782967
806.250000 0.790602
813.750000 0.797897
821.250000 0.804362
828.750000 0.811133
836.250000 0.816835
843.750000 0.824760
851.250000 0.830421
858.750000 0.837217
866.250000 0.842812
873.750000 0.848781
881.250000 0.853451
888.750000 0.858474
896.250000 0.863111
903.750000 0.868975
911.250000 0.873787
918.750000 0.880341
926.250000 0.885066
933.750000 0.890910
941.250000 0.894662
948.750000 0.899296
956.250000 0.902569
963.750000 0.906684
971.250000 0.909131
978.750000 0.912650
986.250000 0.916799
993.750000 0.920415
1001.250000 0.923265
1008.750000 0.924779
1016.250000 0.928299
1023.750000 0.929748
1031.250000 0.932119
1038.750000 0.933127
1046.250000 0.936557
1053.750000 0.938665
1061.250000 0.943466
1068.750000 0.946817
1076.250000 0.950639
1083.750000 0.952348
1091.250000 0.956425
1098.750000 0.958321
1106.250000 0.961811
1113.750000 0.962260
1121.250000 0.966204
1128.750000 0.968375
1136.250000 0.971256
1143.750000 0.973304
1151.250000 0.974818
1158.750000 0.979307
1166.250000 0.981827
1173.750000 0.984566
1181.250000 0.984794
1188.750000 0.985855
1196.250000 0.988162
1203.750000 1.000000
1211.250000 1.000000
1218.750000 1.000000
1226.250000 1.000000
1233.750000 1.000000
1241.250000 1.000000
1248.750000 1.000000
1256.250000 1.000000
1263.750000 1.000000
1271.250000 1.000000
1278.750000 1.000000
1286.250000 1.000000
1293.750000 1.000000
1301.250000 1.000000
1308.750000 1.000000
1316.250000 1.000000
1323.750000 1.000000
1331.250000 1.000000
1338.750000 1.000000
1346.250000 1.000000
1353.750000 1.000000
1361.250000 1.000000
1368.750000 1.000000
1376.250000 1.000000
1383.750000 1.000000
1391.250000 1.000000
1398.750000 1.000000
1406.250000 1.000000
1413.750000 1.000000
1421.250000 1.000000
1428.750000 1.000000
1436.250000 1.000000
1443.750000 1.000000
1451.250000 1.000000
1458.750000 1.000000
1466.250000 1.000000
1473.750000 1.000000
1481.250000 1.000000
1488.750000 1.000000
1496.250000 1.000000
1503.750000 1.000000
1511.250000 1.000000
1518.750000 1.000000
1526.250000 1.000000
1533.750000 1.000000
1541.250000 1.000000
1548.750000 1.000000
1556.250000 1.000000
1563.750000 1.000000
1571.250000 1.000000
1578.750000 1.000000
1586.250000 1.000000
1593.750000 1.000000
1601.250000 1.000000
1608.750000 1.000000
1616.250000 1.000000
1623.750000 1.000000
1631.250000 1.000000
1638.750000 1.000000
1646.250000 1.000000
1653.750000 1.000000
1661.250000 1.000000
1668.750000 1.000000
1676.250000 1.000000
1683.750000 1.000000
1691.250000 1.000000
1698.750000 1.000000
1706.250000 1.000000
1713.750000 1.000000
1721.250000 1.000000
1728.750000 1.000000
1736.250000 1.000000
1743.750000 1.000000
1751.250000 1.000000
1758.750000 1.000000
1766.250000 1.000000
1773.750000 1.000000
1781.250000 1.000000
1788.750000 1.000000
1796.250000 1.000000
1803.750000 1.000000
1811.250000 1.000000
1818.750000 1.000000
1826.250000 1.000000
1833.750000 1.000000
1841.250000 1.000000
1848.750000 1.000000
1856.250000 1.000000
1863.750000 1.000000
1871.250000 1.000000
1878.750000 1.000000
1886.250000 1.000000
1893.750000 1.000000
1901.250000 1.000000
1908.750000 1.000000
1916.250000 1.000000
1923.750000 1.000000
1931.250000 1.000000
1938.750000 1.000000
1946.250000 1.000000
1953.750000 1.000000
1961.250000 1.000000
1968.750000 1.000000
1976.250000 1.000000
1983.750000 1.000000
1991.250000 1.000000
1998.750000 1.000000
2006.250000 1.000000
2013.750000 1.000000
2021.250000 1.000000
2028.750000 1.000000
2036.250000 1.000000
2043.750000 1.000000
2051.250000 1.000000
2058.750000 1.000000
2066.250000 1.000000
2073.750000 1.000000
2081.250000 1.000000
2088.750000 1.000000
2096.250000 1.000000
2103.750000 1.000000
2111.250000 1.000000
2118.750000 1.000000
2126.250000 1.000000
2133.750000 1.000000
2141.250000 1.000000
2148.750000 1.000000
2156.250000 1.000000
2163.750000 1.000000
2171.250000 1.000000
2178.750000 1.000000
2186.250000 1.000000
2193.750000 1.000000
2201.250000 1.000000
2208.750000 1.000000
2216.250000 1.000000
2223.750000 1.000000
2231.250000 1.000000
2238.750000 1.000000
2246.250000 1.000000
2253.750000 1.000000
2261.250000 1.000000
2268.750000 1.000000
2276.250000 1.000000
2283.750000 1.000000
2291.250000 1.000000
2298.750000 1.000000
2306.250000 1.000000
2313.750000 1.000000
2321.250000 1.000000
2328.750000 1.000000
2336.250000 1.000000
2343.750000 1.000000
2351.250000 1.000000
2358.750000 1.000000
2366.250000 1.000000
2373.750000 1.000000
2381.250000 1.000000
2388.750000 1.000000
2396.250000 1.000000
2403.750000 1.000000
2411.250000 1.000000
2418.750000 1.000000
2426.250000 1.000000
2433.750000 1.000000
2441.250000 1.000000
2448.750000 1.000000
2456.250000 1.000000
2463.750000 1.000000
2471.250000 1.000000
2478.750000 1.000000
2486.250000 1.000000
2493.750000 1.000000
2501.250000 1.000000
2508.750000 1.000000
2516.250000 1.000000
2523.750000 1.000000
2531.250000 1.000000
2538.750000 1.000000
2546.250000 1.000000
2553.750000 1.000000
2561.250000 1.000000
2568.750000 1.000000
2576.250000 1.000000
2583.750000 1.000000
2591.250000 1.000000
2598.750000 1.000000
2606.250000 1.000000
2613.750000 1.000000
2621.250000 1.000000
2628.750000 1.000000
2636.250000 1.000000
2643.750000 1.000000
2651.250000 1.000000
2658.750000 1.000000
2666.250000 1.000000
2673.750000 1.000000
2681.250000 1.000000
2688.750000 1.000000
2696.250000 1.000000
2703.750000 1.000000
2711.250000 1.000000
2718.750000 1.000000
2726.250000 1.000000
2733.750000 1.000000
2741.250000 1.000000
2748.750000 1.000000
2756.250000 1.000000
2763.750000 1.000000
2771.250000 1.000000
2778.750000 1.000000
2786.250000 1.000000
2793.750000 1.000000
2801.250000 1.000000
2808.750000 1.000000
2816.250000 1.000000
2823.750000 1.000000
2831.250000 1.000000
2838.750000 1.000000
2846.250000 1.000000
2853.750000 1.000000
2861.250000 1.000000
2868.750000 1.000000
2876.250000 1.000000
2883.750000 1.000000
2891.250000 1.000000
2898.750000 1.000000
2906.250000 1.000000
2913.750000 1.000000
2921.250000 1.000000
2928.750000 1.000000
2936.250000 1.000000
2943.750000 1.000000
2951.250000 1.000000
2958.750000 1.000000
2966.250000 1.000000
2973.750000 1.000000
2981.250000 1.000000
2988.750000 1.000000
2996.250000 1.000000
3003.750000 1.000000
3011.250000 1.000000
3018.750000 1.000000
3026.250000 1.000000
3033.750000 1.000000
3041.250000 1.000000
3048.750000 1.000000
3056.250000 1.000000
3063.750000 1.000000
3071.250000 1.000000
3078.750000 1.000000
3086.250000 1.000000
3093.750000 1.000000
3101.250000 1.000000
3108.750000 1.000000
3116.250000 1.000000
3123.750000 1.000000
3131.250000 1.000000
3138.750000 1.000000
3146.250000 1.000000
3153.750000 1.000000
3161.250000 1.000000
3168.750000 1.000000
3176.250000 1.000000
3183.750000 1.000000
3191.250000 1.000000
3198.750000 1.000000
3206.250000 1.000000
3213.750000 1.000000
3221.250000 1.000000
3228.750000 1.000000
3236.250000 1.000000
3243.750000 1.000000
3251.250000 1.000000
3258.750000 1.000000
3266.250000 1.000000
3273.750000 1.000000
3281.250000 1.000000
3288.750000 1.000000
3296.250000 1.000000
3303.750000 1.000000
3311.250000 1.000000
3318.750000 1.000000
3326.250000 1.000000
3333.750000 1.000000
3341.250000 1.000000
3348.750000 1.000000
3356.250000 1.000000
3363.750000 1.000000
3371.250000 1.000000
3378.750000 1.000000
3386.250000 1.000000
3393.750000 1.000000
3401.250000 1.000000
3408.750000 1.000000
3416.250000 1.000000
3423.750000 1.000000
3431.250000 1.000000
3438.750000 1.000000
3446.250000 1.000000
3453.750000 1.000000
3461.250000 1.000000
3468.750000 1.000000
3476.250000 1.000000
3483.750000 1.000000
3491.250000 1.000000
3498.750000 1.000000
3506.250000 1.000000
3513.750000 1.000000
3521.250000 1.000000
3528.750000 1.000000
3536.250000 1.000000
3543.750000 1.000000
3551.250000 1.000000
3558.750000 1.000000
3566.250000 1.000000
3573.750000 1.000000
3581.250000 1.000000
3588.750000 1.000000
3596.250000 1.000000
3603.750000 1.000000
3611.250000 1.000000
3618.750000 1.000000
3626.250000 1.000000
3633.750000 1.000000
3641.250000 1.000000
3648.750000 1.000000
3656.250000 1.000000
3663.750000 1.000000
3671.250000 1.000000
3678.750000 1.000000
3686.250000 1.000000
3693.750000 1.000000
3701.250000 1.000000
3708.750000 1.000000
3716.250000 1.000000
3723.750000 1.000000
3731.250000 1.000000
3738.750000 1.000000
3746.250000 1.000000
3753.750000 1.000000
3761.250000 1.000000
3768.750000 1.000000
3776.250000 1.000000
3783.750000 1.000000
3791.250000 1.000000
3798.750000 1.000000
3806.250000 1.000000
3813.750000 1.000000
3821.250000 1.000000
3828.750000 1.000000
3836.250000 1.000000
3843.750000 1.000000
3851.250000 1.000000
3858.750000 1.000000
3866.250000 1.000000
3873.750000 1.000000
3881.250000 1.000000
3888.750000 1.000000
3896.250000 1.000000
3903.750000 1.000000
3911.250000 1.000000
3918.750000 1.000000
3926.250000 1.000000
3933.750000 1.000000
3941.250000 1.000000
3948.750000 1.000000
3956.250000 1.000000
3963.750000 1.000000
3971.250000 1.000000
3978.750000 1.000000
3986.250000 1.000000
3993.750000 1.000000
4001.250000 1.000000
4008.750000 1.000000
4016.250000 1.000000
4023.750000 1.000000
4031.250000 1.000000
4038.750000 1.000000
4046.250000 1.000000
4053.750000 1.000000
4061.250000 1.000000
4068.750000 1.000000
4076.250000 1.000000
4083.750000 1.000000
4091.250000 1.000000
4098.750000 1.000000
4106.250000 1.000000
4113.750000 1.000000
4121.250000 1.000000
4128.750000 1.000000
4136.250000 1.000000
4143.750000 1.000000
4151.250000 1.000000
4158.750000 1.000000
4166.250000 1.000000
4173.750000 1.000000
4181.250000 1.000000
4188.750000 1.000000
4196.250000 1.000000
4203.750000 1.000000
4211.250000 1.000000
4218.750000 1.000000
4226.250000 1.000000
4233.750000 1.000000
4241.250000 1.000000
4248.750000 1.000000
4256.250000 1.000000
4263.750000 1.000000
4271.250000 1.000000
4278.750000 1.000000
4286.250000 1.000000
4293.750000 1.000000
4301.250000 1.000000
4308.750000 1.000000
4316.250000 1.000000
4323.750000 1.000000
4331.250000 1.000000
4338.750000 1.000000
4346.250000 1.000000
4353.750000 1.000000
4361.250000 1.000000
4368.750000 1.000000
4376.250000 1.000000
4383.750000 1.000000
4391.250000 1.000000
4398.750000 1.000000
4406.250000 1.000000
4413.750000 1.000000
4421.250000 1.000000
4428.750000 1.000000
4436.250000 1.000000
4443.750000 1.000000
4451.250000 1.000000
4458.750000 1.000000
4466.250000 1.000000
4473.750000 1.000000
4481.250000 1.000000
4488.750000 1.000000
4496.250000 1.000000
4503.750000 1.000000
4511.250000 1.000000
4518.750000 1.000000
4526.250000 1.000000
4533.750000 1.000000
4541.250000 1.000000
4548.750000 1.000000
4556.250000 1.000000
4563.750000 1.000000
4571.250000 1.000000
4578.750000 1.000000
4586.250000 1.000000
4593.750000 1.000000
4601.250000 1.000000
4608.750000 1.000000
4616.250000 1.000000
4623.750000 1.000000
4631.250000 1.000000
4638.750000 1.000000
4646.250000 1.000000
4653.750000 1.000000
4661.250000 1.000000
4668.750000 1.000000
4676.250000 1.000000
4683.750000 1.000000
4691.250000 1.000000
4698.750000 1.000000
4706.250000 1.000000
4713.750000 1.000000
4721.250000 1.000000
4728.750000 1.000000
4736.250000 1.000000
4743.750000 1.000000
4751.250000 1.000000
4758.750000 1.000000
4766.250000 1.000000
4773.750000 1.000000
4781.250000 1.000000
4788.750000 1.000000
4796.250000 1.000000
4803.750000 1.000000
4811.250000 1.000000
4818.750000 1.000000
4826.250000 1.000000
4833.750000 1.000000
4841.250000 1.000000
4848.750000 1.000000
4856.250000 1.000000
4863.750000 1.000000
4871.250000 1.000000
4878.750000 1.000000
4886.250000 1.000000
4893.750000 1.000000
4901.250000 1.000000
4908.750000 1.000000
4916.250000 1.000000
4923.750000 1.000000
4931.250000 1.000000
4938.750000 1.000000
4946.250000 1.000000
4953.750000 1.000000
4961.250000 1.000000
4968.750000 1.000000
4976.250000 1.000000
4983.750000 1.000000
4991.250000 1.000000
4998.750000 1.000000
5006.250000 1.000000
5013.750000 1.000000
5021.250000 1.000000
5028.750000 1.000000
5036.250000 1.000000
5043.750000 1.000000
5051.250000 1.000000
5058.750000 1.000000
5066.250000 1.000000
5073.750000 1.000000
5081.250000 1.000000
5088.750000 1.000000
5096.250000 1.000000
5103.750000 1.000000
5111.250000 1.000000
5118.750000 1.000000
5126.250000 1.000000
5133.750000 1.000000
5141.250000 1.000000
5148.750000 1.000000
5156.250000 1.000000
5163.750000 1.000000
5171.250000 1.000000
5178.750000 1.000000
5186.250000 1.000000
5193.750000 1.000000
5201.250000 1.000000
5208.750000 1.000000
5216.250000 1.000000
5223.750000 1.000000
5231.250000 1.000000
5238.750000 1.000000
5246.250000 1.000000
5253.750000 1.000000
5261.250000 1.000000
5268.750000 1.000000
5276.250000 1.000000
5283.750000 1.000000
5291.250000 1.000000
5298.750000 1.000000
5306.250000 1.000000
5313.750000 1.000000
5321.250000 1.000000
5328.750000 1.000000
5336.250000 1.000000
5343.750000 1.000000
5351.250000 1.000000
5358.750000 1.000000
5366.250000 1.000000
5373.750000 1.000000
5381.250000 1.000000
5388.750000 1.000000
5396.250000 1.000000
5403.750000 1.000000
5411.250000 1.000000
5418.750000 1.000000
5426.250000 1.000000
5433.750000 1.000000
5441.250000 1.000000
5448.750000 1.000000
5456.250000 1.000000
5463.750000 1.000000
5471.250000 1.000000
5478.750000 1.000000
5486.250000 1.000000
5493.750000 1.000000
5501.250000 1.000000
5508.750000 1.000000
5516.250000 1.000000
5523.750000 1.000000
5531.250000 1.000000
5538.750000 1.000000
5546.250000 1.000000
5553.750000 1.000000
5561.250000 1.000000
5568.750000 1.000000
5576.250000 1.000000
5583.750000 1.000000
5591.250000 1.000000
5598.750000 1.000000
5606.250000 1.000000
5613.750000 1.000000
5621.250000 1.000000
5628.750000 1.000000
5636.250000 1.000000
5643.750000 1.000000
5651.250000 1.000000
5658.750000 1.000000
5666.250000 1.000000
5673.750000 1.000000
5681.250000 1.000000
5688.750000 1.000000
5696.250000 1.000000
5703.750000 1.000000
5711.250000 1.000000
5718.750000 1.000000
5726.250000 1.000000
5733.750000 1.000000
5741.250000 1.000000
5748.750000 1.000000
5756.250000 1.000000
5763.750000 1.000000
5771.250000 1.000000
5778.750000 1.000000
5786.250000 1.000000
5793.750000 1.000000
5801.250000 1.000000
5808.750000 1.000000
5816.250000 1.000000
5823.750000 1.000000
5831.250000 1.000000
5838.750000 1.000000
5846.250000 1.000000
5853.750000 1.000000
5861.250000 1.000000
5868.750000 1.000000
5876.250000 1.000000
5883.750000 1.000000
5891.250000 1.000000
5898.750000 1.000000
5906.250000 1.000000
5913.750000 1.000000
5921.250000 1.000000
5928.750000 1.000000
5936.250000 1.000000
5943.750000 1.000000
5951.250000 1.000000
5958.750000 1.000000
5966.250000 1.000000
5973.750000 1.000000
5981.250000 1.000000
5988.750000 1.000000
5996.250000 1.000000
6003.750000 1.000000
6011.250000 1.000000
6018.750000 1.000000
6026.250000 1.000000
6033.750000 1.000000
6041.250000 1.000000
6048.750000 1.000000
6056.250000 1.000000
6063.750000 1.000000
6071.250000 1.000000
6078.750000 1.000000
6086.250000 1.000000
6093.750000 1.000000
6101.250000 1.000000
6108.750000 1.000000
6116.250000 1.000000
6123.750000 1.000000
6131.250000 1.000000
6138.750000 1.000000
6146.250000 1.000000
6153.750000 1.000000
6161.250000 1.000000
6168.750000 1.000000
6176.250000 1.000000
6183.750000 1.000000
6191.250000 1.000000
6198.750000 1.000000
6206.250000 1.000000
6213.750000 1.000000
6221.250000 1.000000
6228.750000 1.000000
6236.250000 1.000000
6243.750000 1.000000
6251.250000 1.000000
6258.750000 1.000000
6266.250000 1.000000
6273.750000 1.000000
6281.250000 1.000000
6288.750000 1.000000
6296.250000 1.000000
6303.750000 1.000000
6311.250000 1.000000
6318.750000 1.000000
6326.250000 1.000000
6333.750000 1.000000
6341.250000 1.000000
6348.750000 1.000000
6356.250000 1.000000
6363.750000 1.000000
6371.250000 1.000000
6378.750000 1.000000
6386.250000 1.000000
6393.750000 1.000000
6401.250000 1.000000
6408.750000 1.000000
6416.250000 1.000000
6423.750000 1.000000
6431.250000 1.000000
6438.750000 1.000000
6446.250000 1.000000
6453.750000 1.000000
6461.250000 1.000000
6468.750000 1.000000
6476.250000 1.000000
6483.750000 1.000000
6491.250000 1.000000
6498.750000 1.000000
6506.250000 1.000000
6513.750000 1.000000
6521.250000 1.000000
6528.750000 1.000000
6536.250000 1.000000
6543.750000 1.000000
6551.250000 1.000000
6558.750000 1.000000
6566.250000 1.000000
6573.750000 1.000000
6581.250000 1.000000
6588.750000 1.000000
6596.250000 1.000000
6603.750000 1.000000
6611.250000 1.000000
6618.750000 1.000000
6626.250000 1.000000
6633.750000 1.000000
6641.250000 1.000000
6648.750000 1.000000
6656.250000 1.000000
6663.750000 1.000000
6671.250000 1.000000
6678.750000 1.000000
6686.250000 1.000000
6693.750000 1.000000
6701.250000 1.000000
6708.750000 1.000000
6716.250000 1.000000
6723.750000 1.000000
6731.250000 1.000000
6738.750000 1.000000
6746.250000 1.000000
6753.750000 1.000000
6761.250000 1.000000
6768.750000 1.000000
6776.250000 1.000000
6783.750000 1.000000
6791.250000 1.000000
6798.750000 1.000000
6806.250000 1.000000
6813.750000 1.000000
6821.250000 1.000000
6828.750000 1.000000
6836.250000 1.000000
6843.750000 1.000000
6851.250000 1.000000
6858.750000 1.000000
6866.250000 1.000000
6873.750000 1.000000
6881.250000 1.000000
6888.750000 1.000000
6896.250000 1.000000
6903.750000 1.000000
6911.250000 1.000000
6918.750000 1.000000
6926.250000 1.000000
6933.750000 1.000000
6941.250000 1.000000
6948.750000 1.000000
6956.250000 1.000000
6963.750000 1.000000
6971.250000 1.000000
6978.750000 1.000000
6986.250000 1.000000
6993.750000 1.000000
7001.250000 1.000000
7008.750000 1.000000
7016.250000 1.000000
7023.750000 1.000000
7031.250000 1.000000
7038.750000 1.000000
7046.250000 1.000000
7053.750000 1.000000
7061.250000 1.000000
7068.750000 1.000000
7076.250000 1.000000
7083.750000 1.000000
