range (m) overlap_factor (smoothed by 4 range bins)
-45.000000 -0.000000
-37.500000 -0.000000
-30.000000 0.000000
-22.500000 -0.000000
-15.000000 0.000004
-7.500000 0.000004
0.000000 0.000051
7.500000 0.000237
15.000000 0.000632
22.500000 0.001572
30.000000 0.003984
37.500000 0.008859
45.000000 0.016030
52.500000 0.024625
60.000000 0.033635
67.500000 0.043048
75.000000 0.052825
82.500000 0.062940
90.000000 0.074038
97.500000 0.085442
105.000000 0.097333
112.500000 0.108591
120.000000 0.120098
127.500000 0.131785
135.000000 0.143749
142.500000 0.155687
150.000000 0.167518
157.500000 0.179416
165.000000 0.191553
172.500000 0.205837
180.000000 0.220080
187.500000 0.234574
195.000000 0.247339
202.500000 0.260711
210.000000 0.273936
217.500000 0.291345
225.000000 0.306793
232.500000 0.313636
240.000000 0.316485
247.500000 0.319202
255.000000 0.332956
262.500000 0.345620
270.000000 0.360013
277.500000 0.371881
285.000000 0.384606
292.500000 0.400092
300.000000 0.411893
307.500000 0.422881
315.000000 0.430647
322.500000 0.441164
330.000000 0.452272
337.500000 0.466802
345.000000 0.482009
352.500000 0.494840
360.000000 0.512452
367.500000 0.519334
375.000000 0.526747
382.500000 0.532554
390.000000 0.549821
397.500000 0.560993
405.000000 0.561797
412.500000 0.563569
420.000000 0.576303
427.500000 0.588626
435.000000 0.618137
442.500000 0.637352
450.000000 0.638712
457.500000 0.617012
465.000000 0.600669
472.500000 0.604664
480.000000 0.610924
487.500000 0.615865
495.000000 0.621846
502.500000 0.632355
510.000000 0.643154
517.500000 0.651836
525.000000 0.655159
532.500000 0.659715
540.000000 0.664431
547.500000 0.669538
555.000000 0.673846
562.500000 0.678333
570.000000 0.682727
577.500000 0.686880
585.000000 0.696006
592.500000 0.705059
600.000000 0.713721
607.500000 0.717936
615.000000 0.722069
622.500000 0.726681
630.000000 0.730705
637.500000 0.733647
645.000000 0.736773
652.500000 0.739384
660.000000 0.744042
667.500000 0.753024
675.000000 0.760986
682.500000 0.766330
690.000000 0.767142
697.500000 0.770271
705.000000 0.773963
712.500000 0.778256
720.000000 0.779877
727.500000 0.782562
735.000000 0.782768
742.500000 0.785883
750.000000 0.793299
757.500000 0.801325
765.000000 0.808162
772.500000 0.809567
780.000000 0.811444
787.500000 0.813499
795.000000 0.815264
802.500000 0.816485
810.000000 0.818443
817.500000 0.819601
825.000000 0.822747
832.500000 0.829270
840.000000 0.835219
847.500000 0.841337
855.000000 0.841447
862.500000 0.844308
870.000000 0.845925
877.500000 0.848968
885.000000 0.849300
892.500000 0.850598
900.000000 0.851257
907.500000 0.855562
915.000000 0.862962
922.500000 0.868775
930.000000 0.872672
937.500000 0.871688
945.000000 0.873118
952.500000 0.874669
960.000000 0.876689
967.500000 0.877546
975.000000 0.878280
982.500000 0.879481
990.000000 0.881096
997.500000 0.887239
1005.000000 0.892655
1012.500000 0.897371
1020.000000 0.897026
1027.500000 0.896965
1035.000000 0.896555
1042.500000 0.897400
1050.000000 0.897214
1057.500000 0.898534
1065.000000 0.897631
1072.500000 0.898752
1080.000000 0.903808
1087.500000 0.910237
1095.000000 0.914810
1102.500000 0.914772
1110.000000 0.915788
1117.500000 0.915459
1125.000000 0.918461
1132.500000 0.921190
1140.000000 0.926738
1147.500000 0.929323
1155.000000 0.931054
1162.500000 0.935886
1170.000000 0.939056
1177.500000 0.941060
1185.000000 0.937717
1192.500000 0.935438
1200.000000 0.934167
1207.500000 0.933932
1215.000000 0.933060
1222.500000 0.931678
1230.000000 0.930175
1237.500000 0.930229
1245.000000 0.935014
1252.500000 0.940372
1260.000000 0.944671
1267.500000 0.944807
1275.000000 0.943457
1282.500000 0.943737
1290.000000 0.943326
1297.500000 0.944635
1305.000000 0.944448
1312.500000 0.946242
1320.000000 0.949288
1327.500000 0.956623
1335.000000 0.961818
1342.500000 0.964001
1350.000000 0.959855
1357.500000 0.958560
1365.000000 0.958168
1372.500000 0.956920
1380.000000 0.952828
1387.500000 0.952066
1395.000000 0.950367
1402.500000 0.951361
1410.000000 0.952855
1417.500000 0.958252
1425.000000 0.961898
1432.500000 0.962050
1440.000000 0.962290
1447.500000 0.962634
1455.000000 0.960501
1462.500000 0.959649
1470.000000 0.960576
1477.500000 0.961916
1485.000000 0.963393
1492.500000 0.966526
1500.000000 0.971336
1507.500000 0.974946
1515.000000 0.974865
1522.500000 0.976693
1530.000000 0.976610
1537.500000 0.977607
1545.000000 0.974423
1552.500000 0.973539
1560.000000 0.970618
1567.500000 0.971519
1575.000000 0.975471
1582.500000 0.980881
1590.000000 0.981708
1597.500000 0.979353
1605.000000 0.975126
1612.500000 0.978487
1620.000000 0.979205
1627.500000 0.978710
1635.000000 0.974073
1642.500000 0.969714
1650.000000 0.973033
1657.500000 0.979423
1665.000000 0.984495
1672.500000 0.986589
1680.000000 0.981917
1687.500000 0.981758
1695.000000 0.979884
1702.500000 0.979859
1710.000000 0.977822
1717.500000 0.977244
1725.000000 0.978106
1732.500000 0.979653
1740.000000 0.982587
1747.500000 0.984145
1755.000000 0.984275
1762.500000 0.984021
1770.000000 0.983974
1777.500000 0.985254
1785.000000 0.984565
1792.500000 0.983521
1800.000000 0.982500
1807.500000 0.982019
1815.000000 0.981255
1822.500000 0.983870
1830.000000 0.984596
1837.500000 0.990458
1845.000000 0.992133
1852.500000 0.991590
1860.000000 0.987356
1867.500000 0.986857
1875.000000 0.986436
1882.500000 0.985273
1890.000000 0.979111
1897.500000 0.977068
1905.000000 0.979235
1912.500000 0.984670
1920.000000 0.987061
1927.500000 0.987308
1935.000000 0.986075
1942.500000 0.986340
1950.000000 0.985618
1957.500000 0.983401
1965.000000 0.983009
1972.500000 0.980076
1980.000000 0.980722
1987.500000 0.982448
1995.000000 0.988116
2002.500000 1.000000
2010.000000 1.000000
2017.500000 1.000000
2025.000000 1.000000
2032.500000 1.000000
2040.000000 1.000000
2047.500000 1.000000
2055.000000 1.000000
2062.500000 1.000000
2070.000000 1.000000
2077.500000 1.000000
2085.000000 1.000000
2092.500000 1.000000
2100.000000 1.000000
2107.500000 1.000000
2115.000000 1.000000
2122.500000 1.000000
2130.000000 1.000000
2137.500000 1.000000
2145.000000 1.000000
2152.500000 1.000000
2160.000000 1.000000
2167.500000 1.000000
2175.000000 1.000000
2182.500000 1.000000
2190.000000 1.000000
2197.500000 1.000000
2205.000000 1.000000
2212.500000 1.000000
2220.000000 1.000000
2227.500000 1.000000
2235.000000 1.000000
2242.500000 1.000000
2250.000000 1.000000
2257.500000 1.000000
2265.000000 1.000000
2272.500000 1.000000
2280.000000 1.000000
2287.500000 1.000000
2295.000000 1.000000
2302.500000 1.000000
2310.000000 1.000000
2317.500000 1.000000
2325.000000 1.000000
2332.500000 1.000000
2340.000000 1.000000
2347.500000 1.000000
2355.000000 1.000000
2362.500000 1.000000
2370.000000 1.000000
2377.500000 1.000000
2385.000000 1.000000
2392.500000 1.000000
2400.000000 1.000000
2407.500000 1.000000
2415.000000 1.000000
2422.500000 1.000000
2430.000000 1.000000
2437.500000 1.000000
2445.000000 1.000000
2452.500000 1.000000
2460.000000 1.000000
2467.500000 1.000000
2475.000000 1.000000
2482.500000 1.000000
2490.000000 1.000000
2497.500000 1.000000
2505.000000 1.000000
2512.500000 1.000000
2520.000000 1.000000
2527.500000 1.000000
2535.000000 1.000000
2542.500000 1.000000
2550.000000 1.000000
2557.500000 1.000000
2565.000000 1.000000
2572.500000 1.000000
2580.000000 1.000000
2587.500000 1.000000
2595.000000 1.000000
2602.500000 1.000000
2610.000000 1.000000
2617.500000 1.000000
2625.000000 1.000000
2632.500000 1.000000
2640.000000 1.000000
2647.500000 1.000000
2655.000000 1.000000
2662.500000 1.000000
2670.000000 1.000000
2677.500000 1.000000
2685.000000 1.000000
2692.500000 1.000000
2700.000000 1.000000
2707.500000 1.000000
2715.000000 1.000000
2722.500000 1.000000
2730.000000 1.000000
2737.500000 1.000000
2745.000000 1.000000
2752.500000 1.000000
2760.000000 1.000000
2767.500000 1.000000
2775.000000 1.000000
2782.500000 1.000000
2790.000000 1.000000
2797.500000 1.000000
2805.000000 1.000000
2812.500000 1.000000
2820.000000 1.000000
2827.500000 1.000000
2835.000000 1.000000
2842.500000 1.000000
2850.000000 1.000000
2857.500000 1.000000
2865.000000 1.000000
2872.500000 1.000000
2880.000000 1.000000
2887.500000 1.000000
2895.000000 1.000000
2902.500000 1.000000
2910.000000 1.000000
2917.500000 1.000000
2925.000000 1.000000
2932.500000 1.000000
2940.000000 1.000000
2947.500000 1.000000
2955.000000 1.000000
2962.500000 1.000000
2970.000000 1.000000
2977.500000 1.000000
2985.000000 1.000000
2992.500000 1.000000
3000.000000 1.000000
3007.500000 1.000000
3015.000000 1.000000
3022.500000 1.000000
3030.000000 1.000000
3037.500000 1.000000
3045.000000 1.000000
3052.500000 1.000000
3060.000000 1.000000
3067.500000 1.000000
3075.000000 1.000000
3082.500000 1.000000
3090.000000 1.000000
3097.500000 1.000000
3105.000000 1.000000
3112.500000 1.000000
3120.000000 1.000000
3127.500000 1.000000
3135.000000 1.000000
3142.500000 1.000000
3150.000000 1.000000
3157.500000 1.000000
3165.000000 1.000000
3172.500000 1.000000
3180.000000 1.000000
3187.500000 1.000000
3195.000000 1.000000
3202.500000 1.000000
3210.000000 1.000000
3217.500000 1.000000
3225.000000 1.000000
3232.500000 1.000000
3240.000000 1.000000
3247.500000 1.000000
3255.000000 1.000000
3262.500000 1.000000
3270.000000 1.000000
3277.500000 1.000000
3285.000000 1.000000
3292.500000 1.000000
3300.000000 1.000000
3307.500000 1.000000
3315.000000 1.000000
3322.500000 1.000000
3330.000000 1.000000
3337.500000 1.000000
3345.000000 1.000000
3352.500000 1.000000
3360.000000 1.000000
3367.500000 1.000000
3375.000000 1.000000
3382.500000 1.000000
3390.000000 1.000000
3397.500000 1.000000
3405.000000 1.000000
3412.500000 1.000000
3420.000000 1.000000
3427.500000 1.000000
3435.000000 1.000000
3442.500000 1.000000
3450.000000 1.000000
3457.500000 1.000000
3465.000000 1.000000
3472.500000 1.000000
3480.000000 1.000000
3487.500000 1.000000
3495.000000 1.000000
3502.500000 1.000000
3510.000000 1.000000
3517.500000 1.000000
3525.000000 1.000000
3532.500000 1.000000
3540.000000 1.000000
3547.500000 1.000000
3555.000000 1.000000
3562.500000 1.000000
3570.000000 1.000000
3577.500000 1.000000
3585.000000 1.000000
3592.500000 1.000000
3600.000000 1.000000
3607.500000 1.000000
3615.000000 1.000000
3622.500000 1.000000
3630.000000 1.000000
3637.500000 1.000000
3645.000000 1.000000
3652.500000 1.000000
3660.000000 1.000000
3667.500000 1.000000
3675.000000 1.000000
3682.500000 1.000000
3690.000000 1.000000
3697.500000 1.000000
3705.000000 1.000000
3712.500000 1.000000
3720.000000 1.000000
3727.500000 1.000000
3735.000000 1.000000
3742.500000 1.000000
3750.000000 1.000000
3757.500000 1.000000
3765.000000 1.000000
3772.500000 1.000000
3780.000000 1.000000
3787.500000 1.000000
3795.000000 1.000000
3802.500000 1.000000
3810.000000 1.000000
3817.500000 1.000000
3825.000000 1.000000
3832.500000 1.000000
3840.000000 1.000000
3847.500000 1.000000
3855.000000 1.000000
3862.500000 1.000000
3870.000000 1.000000
3877.500000 1.000000
3885.000000 1.000000
3892.500000 1.000000
3900.000000 1.000000
3907.500000 1.000000
3915.000000 1.000000
3922.500000 1.000000
3930.000000 1.000000
3937.500000 1.000000
3945.000000 1.000000
3952.500000 1.000000
3960.000000 1.000000
3967.500000 1.000000
3975.000000 1.000000
3982.500000 1.000000
3990.000000 1.000000
3997.500000 1.000000
4005.000000 1.000000
4012.500000 1.000000
4020.000000 1.000000
4027.500000 1.000000
4035.000000 1.000000
4042.500000 1.000000
4050.000000 1.000000
4057.500000 1.000000
4065.000000 1.000000
4072.500000 1.000000
4080.000000 1.000000
4087.500000 1.000000
4095.000000 1.000000
4102.500000 1.000000
4110.000000 1.000000
4117.500000 1.000000
4125.000000 1.000000
4132.500000 1.000000
4140.000000 1.000000
4147.500000 1.000000
4155.000000 1.000000
4162.500000 1.000000
4170.000000 1.000000
4177.500000 1.000000
4185.000000 1.000000
4192.500000 1.000000
4200.000000 1.000000
4207.500000 1.000000
4215.000000 1.000000
4222.500000 1.000000
4230.000000 1.000000
4237.500000 1.000000
4245.000000 1.000000
4252.500000 1.000000
4260.000000 1.000000
4267.500000 1.000000
4275.000000 1.000000
4282.500000 1.000000
4290.000000 1.000000
4297.500000 1.000000
4305.000000 1.000000
4312.500000 1.000000
4320.000000 1.000000
4327.500000 1.000000
4335.000000 1.000000
4342.500000 1.000000
4350.000000 1.000000
4357.500000 1.000000
4365.000000 1.000000
4372.500000 1.000000
4380.000000 1.000000
4387.500000 1.000000
4395.000000 1.000000
4402.500000 1.000000
4410.000000 1.000000
4417.500000 1.000000
4425.000000 1.000000
4432.500000 1.000000
4440.000000 1.000000
4447.500000 1.000000
4455.000000 1.000000
4462.500000 1.000000
4470.000000 1.000000
4477.500000 1.000000
4485.000000 1.000000
4492.500000 1.000000
4500.000000 1.000000
4507.500000 1.000000
4515.000000 1.000000
4522.500000 1.000000
4530.000000 1.000000
4537.500000 1.000000
4545.000000 1.000000
4552.500000 1.000000
4560.000000 1.000000
4567.500000 1.000000
4575.000000 1.000000
4582.500000 1.000000
4590.000000 1.000000
4597.500000 1.000000
4605.000000 1.000000
4612.500000 1.000000
4620.000000 1.000000
4627.500000 1.000000
4635.000000 1.000000
4642.500000 1.000000
4650.000000 1.000000
4657.500000 1.000000
4665.000000 1.000000
4672.500000 1.000000
4680.000000 1.000000
4687.500000 1.000000
4695.000000 1.000000
4702.500000 1.000000
4710.000000 1.000000
4717.500000 1.000000
4725.000000 1.000000
4732.500000 1.000000
4740.000000 1.000000
4747.500000 1.000000
4755.000000 1.000000
4762.500000 1.000000
4770.000000 1.000000
4777.500000 1.000000
4785.000000 1.000000
4792.500000 1.000000
4800.000000 1.000000
4807.500000 1.000000
4815.000000 1.000000
4822.500000 1.000000
4830.000000 1.000000
4837.500000 1.000000
4845.000000 1.000000
4852.500000 1.000000
4860.000000 1.000000
4867.500000 1.000000
4875.000000 1.000000
4882.500000 1.000000
4890.000000 1.000000
4897.500000 1.000000
4905.000000 1.000000
4912.500000 1.000000
4920.000000 1.000000
4927.500000 1.000000
4935.000000 1.000000
4942.500000 1.000000
4950.000000 1.000000
4957.500000 1.000000
4965.000000 1.000000
4972.500000 1.000000
4980.000000 1.000000
4987.500000 1.000000
4995.000000 1.000000
5002.500000 1.000000
5010.000000 1.000000
5017.500000 1.000000
5025.000000 1.000000
5032.500000 1.000000
5040.000000 1.000000
5047.500000 1.000000
5055.000000 1.000000
5062.500000 1.000000
5070.000000 1.000000
5077.500000 1.000000
5085.000000 1.000000
5092.500000 1.000000
5100.000000 1.000000
5107.500000 1.000000
5115.000000 1.000000
5122.500000 1.000000
5130.000000 1.000000
5137.500000 1.000000
5145.000000 1.000000
5152.500000 1.000000
5160.000000 1.000000
5167.500000 1.000000
5175.000000 1.000000
5182.500000 1.000000
5190.000000 1.000000
5197.500000 1.000000
5205.000000 1.000000
5212.500000 1.000000
5220.000000 1.000000
5227.500000 1.000000
5235.000000 1.000000
5242.500000 1.000000
5250.000000 1.000000
5257.500000 1.000000
5265.000000 1.000000
5272.500000 1.000000
5280.000000 1.000000
5287.500000 1.000000
5295.000000 1.000000
5302.500000 1.000000
5310.000000 1.000000
5317.500000 1.000000
5325.000000 1.000000
5332.500000 1.000000
5340.000000 1.000000
5347.500000 1.000000
5355.000000 1.000000
5362.500000 1.000000
5370.000000 1.000000
5377.500000 1.000000
5385.000000 1.000000
5392.500000 1.000000
5400.000000 1.000000
5407.500000 1.000000
5415.000000 1.000000
5422.500000 1.000000
5430.000000 1.000000
5437.500000 1.000000
5445.000000 1.000000
5452.500000 1.000000
5460.000000 1.000000
5467.500000 1.000000
5475.000000 1.000000
5482.500000 1.000000
5490.000000 1.000000
5497.500000 1.000000
5505.000000 1.000000
5512.500000 1.000000
5520.000000 1.000000
5527.500000 1.000000
5535.000000 1.000000
5542.500000 1.000000
5550.000000 1.000000
5557.500000 1.000000
5565.000000 1.000000
5572.500000 1.000000
5580.000000 1.000000
5587.500000 1.000000
5595.000000 1.000000
5602.500000 1.000000
5610.000000 1.000000
5617.500000 1.000000
5625.000000 1.000000
5632.500000 1.000000
5640.000000 1.000000
5647.500000 1.000000
5655.000000 1.000000
5662.500000 1.000000
5670.000000 1.000000
5677.500000 1.000000
5685.000000 1.000000
5692.500000 1.000000
5700.000000 1.000000
5707.500000 1.000000
5715.000000 1.000000
5722.500000 1.000000
5730.000000 1.000000
5737.500000 1.000000
5745.000000 1.000000
5752.500000 1.000000
5760.000000 1.000000
5767.500000 1.000000
5775.000000 1.000000
5782.500000 1.000000
5790.000000 1.000000
5797.500000 1.000000
5805.000000 1.000000
5812.500000 1.000000
5820.000000 1.000000
5827.500000 1.000000
5835.000000 1.000000
5842.500000 1.000000
5850.000000 1.000000
5857.500000 1.000000
5865.000000 1.000000
5872.500000 1.000000
5880.000000 1.000000
5887.500000 1.000000
5895.000000 1.000000
5902.500000 1.000000
5910.000000 1.000000
5917.500000 1.000000
5925.000000 1.000000
5932.500000 1.000000
5940.000000 1.000000
5947.500000 1.000000
5955.000000 1.000000
5962.500000 1.000000
5970.000000 1.000000
5977.500000 1.000000
5985.000000 1.000000
5992.500000 1.000000
6000.000000 1.000000
6007.500000 1.000000
6015.000000 1.000000
6022.500000 1.000000
6030.000000 1.000000
6037.500000 1.000000
6045.000000 1.000000
6052.500000 1.000000
6060.000000 1.000000
6067.500000 1.000000
6075.000000 1.000000
6082.500000 1.000000
6090.000000 1.000000
6097.500000 1.000000
6105.000000 1.000000
6112.500000 1.000000
6120.000000 1.000000
6127.500000 1.000000
6135.000000 1.000000
6142.500000 1.000000
6150.000000 1.000000
6157.500000 1.000000
6165.000000 1.000000
6172.500000 1.000000
6180.000000 1.000000
6187.500000 1.000000
6195.000000 1.000000
6202.500000 1.000000
6210.000000 1.000000
6217.500000 1.000000
6225.000000 1.000000
6232.500000 1.000000
6240.000000 1.000000
6247.500000 1.000000
6255.000000 1.000000
6262.500000 1.000000
6270.000000 1.000000
6277.500000 1.000000
6285.000000 1.000000
6292.500000 1.000000
6300.000000 1.000000
6307.500000 1.000000
6315.000000 1.000000
6322.500000 1.000000
6330.000000 1.000000
6337.500000 1.000000
6345.000000 1.000000
6352.500000 1.000000
6360.000000 1.000000
6367.500000 1.000000
6375.000000 1.000000
6382.500000 1.000000
6390.000000 1.000000
6397.500000 1.000000
6405.000000 1.000000
6412.500000 1.000000
6420.000000 1.000000
6427.500000 1.000000
6435.000000 1.000000
6442.500000 1.000000
6450.000000 1.000000
6457.500000 1.000000
6465.000000 1.000000
6472.500000 1.000000
6480.000000 1.000000
6487.500000 1.000000
6495.000000 1.000000
6502.500000 1.000000
6510.000000 1.000000
6517.500000 1.000000
6525.000000 1.000000
6532.500000 1.000000
6540.000000 1.000000
6547.500000 1.000000
6555.000000 1.000000
6562.500000 1.000000
6570.000000 1.000000
6577.500000 1.000000
6585.000000 1.000000
6592.500000 1.000000
6600.000000 1.000000
6607.500000 1.000000
6615.000000 1.000000
6622.500000 1.000000
6630.000000 1.000000
6637.500000 1.000000
6645.000000 1.000000
6652.500000 1.000000
6660.000000 1.000000
6667.500000 1.000000
6675.000000 1.000000
6682.500000 1.000000
6690.000000 1.000000
6697.500000 1.000000
6705.000000 1.000000
6712.500000 1.000000
6720.000000 1.000000
6727.500000 1.000000
6735.000000 1.000000
6742.500000 1.000000
6750.000000 1.000000
6757.500000 1.000000
6765.000000 1.000000
6772.500000 1.000000
6780.000000 1.000000
6787.500000 1.000000
6795.000000 1.000000
6802.500000 1.000000
6810.000000 1.000000
6817.500000 1.000000
6825.000000 1.000000
6832.500000 1.000000
6840.000000 1.000000
6847.500000 1.000000
6855.000000 1.000000
6862.500000 1.000000
6870.000000 1.000000
6877.500000 1.000000
6885.000000 1.000000
6892.500000 1.000000
6900.000000 1.000000
6907.500000 1.000000
6915.000000 1.000000
6922.500000 1.000000
6930.000000 1.000000
6937.500000 1.000000
6945.000000 1.000000
6952.500000 1.000000
6960.000000 1.000000
6967.500000 1.000000
6975.000000 1.000000
6982.500000 1.000000
6990.000000 1.000000
6997.500000 1.000000
7005.000000 1.000000
7012.500000 1.000000
7020.000000 1.000000
7027.500000 1.000000
7035.000000 1.000000
7042.500000 1.000000
7050.000000 1.000000
7057.500000 1.000000
7065.000000 1.000000
7072.500000 1.000000
7080.000000 1.000000
7087.500000 1.000000
7095.000000 1.000000
7102.500000 1.000000
7110.000000 1.000000
7117.500000 1.000000
7125.000000 1.000000
